epoch,balance,equity
1788220800,10000.0,10000.0
1788221100,10000.0,10000.0
1788221400,10000.0,10000.0
1788221700,10000.0,10000.0
1788222000,10000.0,10000.0
1788222300,10000.0,10000.0
1788222600,10000.0,10000.0
1788222901,10000.0,10000.0
1788223201,10000.0,10000.0
1788223500,10000.0,10000.0
1788223800,10000.0,10000.0
1788224100,10000.0,10000.0
1788224400,10000.0,10000.0
1788224700,10000.0,10000.0
1788225000,10000.0,10000.0
1788225300,10000.0,10000.0
1788225600,10000.0,10000.0
1788225900,10000.0,10000.0
1788226200,10000.0,10000.0
1788226500,10000.0,10000.0
1788226800,10000.0,10000.0
1788227100,10000.0,10000.0
1788227400,10000.0,10000.0
1788227700,10000.0,10000.0
1788228000,10000.0,10000.0
1788228300,10000.0,10000.0
1788228600,10000.0,10000.0
1788228900,10000.0,10000.0
1788229200,10000.0,10000.0
1788229500,10000.0,10000.0
1788229800,10000.0,10000.0
1788230100,10000.0,10000.0
1788230400,10000.0,10000.0
1788230700,10000.0,10000.0
1788231000,10000.0,10000.0
1788231300,10000.0,10000.0
1788231600,10000.0,10000.0
1788231900,10000.0,10000.0
1788232200,10000.0,10000.0
1788232501,10000.0,10000.0
1788232800,10000.0,10000.0
1788233100,10000.0,10000.0
1788233400,10000.0,10000.0
1788233700,10000.0,10000.0
1788234000,10000.0,10000.0
1788234300,10000.0,10000.0
1788234600,10000.0,10000.0
1788234900,10000.0,10000.0
1788235200,10000.0,10000.0
1788235501,10000.0,10000.0
1788235800,10000.0,10000.0
1788236100,10000.0,10000.0
1788236400,10000.0,10000.0
1788236700,10000.0,10000.0
1788237000,10000.0,10000.0
1788237300,10000.0,10000.0
1788237600,10000.0,10000.0
1788237900,10000.0,10000.0
1788238200,10000.0,10000.0
1788238500,10000.0,10000.0
1788238800,10000.0,10000.0
1788239100,10000.0,10000.0
1788239400,10000.0,10000.0
1788239700,10000.0,10000.0
1788240000,10000.0,10000.0
1788240300,10000.0,10000.0
1788240600,10000.0,10000.0
1788240900,10000.0,10000.0
1788241200,10000.0,10000.0
1788241500,10000.0,10000.0
1788241800,10000.0,10000.0
1788242100,10000.0,10000.0
1788242400,10000.0,10000.0
1788242700,10000.0,10000.0
1788243000,10000.0,10000.0
1788243300,10000.0,10000.0
1788243600,10000.0,10000.0
1788243900,10000.0,10000.0
1788244200,10000.0,10000.0
1788244500,10000.0,10000.0
1788244800,10000.0,10000.0
1788245100,10000.0,10000.0
1788245400,10000.0,10000.0
1788245700,10000.0,10000.0
1788246000,10000.0,10000.0
1788246300,10000.0,10000.0
1788246600,10000.0,10000.0
1788246900,10000.0,10000.0
1788247200,10000.0,10000.0
1788247500,10000.0,10000.0
1788247800,10000.0,10000.0
1788248100,10000.0,10000.0
1788248400,10000.0,10000.0
1788248700,10000.0,10000.0
1788249000,10000.0,10000.0
1788249300,10000.0,10000.0
1788249600,10000.0,10000.0
1788249900,10000.0,10000.0
1788250200,10000.0,10000.0
1788250500,10000.0,10000.0
1788250800,10000.0,10000.0
1788251100,10000.0,10000.0
1788251400,10000.0,10000.0
1788251700,10000.0,10000.0
1788252000,10000.0,10000.0
1788252300,10000.0,10000.0
1788252600,10000.0,10000.0
1788252900,10000.0,10000.0
1788253200,10000.0,10000.0
1788253500,9999.78,9985.15
1788253800,9999.78,10003.2
1788254100,9999.78,9978.74
1788254400,9999.78,9977.44
1788254700,9999.78,9981.31
1788255000,9999.78,9990.2
1788255300,9999.78,9999.54
1788255600,9999.78,10009.13
1788255900,9999.78,9996.5
1788256200,9999.78,10004.28
1788256500,9999.78,9999.68
1788256800,9999.78,10023.07
1788257100,9999.78,10008.0
1788257400,9999.78,9990.24
1788257700,9999.78,9969.5
1788258000,9999.78,9958.84
1788258300,9999.78,9945.08
1788258600,9999.78,9942.59
1788258900,9999.78,9947.81
1788259200,9999.78,9945.62
1788259500,9999.78,9955.3
1788259800,9999.78,9970.41
1788260100,9999.78,9978.06
1788260400,9999.78,9969.0
1788260700,9999.78,9961.85
1788261000,9999.78,9954.42
1788261300,9999.78,9974.06
1788261600,9999.78,9976.97
1788261900,9999.78,9970.8
1788262200,9999.78,9959.98
1788262500,9999.78,9959.87
1788262800,9999.78,9947.92
1788263100,9999.78,9945.62
1788263400,9999.78,9942.08
1788263700,9999.78,9965.86
1788264000,9999.78,9985.41
1788264300,9999.78,9994.74
1788264600,9999.78,9998.85
1788264900,9999.78,9998.39
1788265200,9999.78,9997.42
1788265500,9999.78,10009.77
1788265800,9999.78,10007.74
1788266100,9999.78,10046.11
1788266400,9999.78,10051.79
1788266700,9999.78,10023.57
1788267000,9999.78,10024.84
1788267300,9999.78,10029.98
1788267600,9999.78,10057.09
1788267900,9999.78,10124.12
1788268200,9999.78,10154.32
1788268500,9999.78,10163.64
1788268800,9999.78,10146.96
1788269100,9999.78,10138.09
1788269400,9999.78,10109.82
1788269700,9999.78,10070.87
1788270000,9999.78,10070.09
1788270300,9999.78,10035.71
1788270600,9999.78,10038.39
1788270900,9999.78,10050.61
1788271200,9999.78,10020.45
1788271500,9999.78,10069.28
1788271800,9999.78,10017.86
1788272100,9999.78,10000.68
1788272400,9999.78,9997.51
1788272700,9999.78,9988.07
1788273000,9999.78,10018.94
1788273300,9999.78,9993.26
1788273600,9999.78,10018.84
1788273900,9999.78,10015.02
1788274200,9999.78,10035.35
1788274500,9999.78,10041.4
1788274800,9999.78,10040.05
1788275100,9999.78,10051.93
1788275400,9999.78,10042.16
1788275700,9999.78,10052.55
1788276000,9999.78,10029.33
1788276300,9999.78,10033.5
1788276600,9999.78,10019.48
1788276900,9999.78,10030.93
1788277200,9999.78,10024.98
1788277500,9999.78,9999.82
1788277800,9999.78,9997.78
1788278100,9999.78,9991.52
1788278400,9999.78,9989.73
1788278700,9999.78,9994.98
1788279000,9999.78,10010.44
1788279300,9999.78,10032.31
1788279600,9999.78,10047.03
1788279900,9999.78,10051.09
1788280200,9999.78,10071.21
1788280500,9999.78,10086.37
1788280800,9999.78,10062.42
1788281100,9999.78,10063.46
1788281400,9999.78,10053.99
1788281700,9999.78,10062.17
1788282000,9999.78,10077.2
1788282300,9999.78,10095.32
1788282600,9999.78,10097.36
1788282900,9999.78,10096.21
1788283200,9999.78,10096.04
1788283500,9999.78,10092.27
1788283800,9999.78,10082.83
1788284100,9999.78,10091.41
1788284400,9999.78,10098.05
1788284700,9999.78,10106.68
1788285000,9999.78,10111.3
1788285300,9999.78,10108.22
1788285600,9999.78,10109.89
1788285900,9999.78,10126.07
1788286201,9999.78,10135.49
1788286500,9999.78,10135.78
1788286800,9999.78,10120.47
1788287100,9999.78,10116.81
1788287400,9999.78,10132.41
1788287700,9999.78,10146.17
1788288000,9999.78,10162.76
1788288300,9999.78,10163.45
1788288600,9999.78,10154.84
1788288900,9999.78,10164.64
1788289200,9999.78,10156.29
1788289500,9999.78,10155.46
1788289800,9999.78,10155.98
1788290100,9999.78,10133.66
1788290400,9999.78,10142.23
1788290700,9999.78,10146.87
1788291000,9999.78,10143.75
1788291300,9999.78,10161.93
1788291600,9999.78,10189.77
1788291900,9999.78,10175.88
1788292200,9999.78,10172.78
1788292500,9999.78,10170.59
1788292800,9999.78,10174.63
1788293100,9999.78,10169.98
1788293400,9999.78,10165.22
1788293700,9999.78,10179.18
1788294000,9999.78,10170.48
1788294300,9999.78,10171.09
1788294600,9999.78,10177.7
1788294900,9999.78,10178.71
1788295200,9999.78,10172.31
1788295500,9999.78,10171.4
1788295800,9999.78,10168.33
1788296100,9999.78,10166.82
1788300030,9999.78,10151.54
1788300300,9999.78,10158.08
1788300600,9999.78,10162.31
1788300900,9999.78,10165.03
1788301200,9999.78,10172.56
1788301500,9999.78,10169.68
1788301800,9999.78,10171.37
1788302100,9999.78,10172.33
1788302400,9999.78,10171.4
1788302700,9999.78,10169.52
1788303000,9999.78,10168.67
1788303301,9999.78,10164.15
1788303600,9999.78,10164.29
1788303900,9999.78,10163.44
1788304202,9999.78,10158.77
1788304500,9999.78,10160.28
1788304800,9999.78,10162.73
1788305100,9999.78,10172.42
1788305400,9999.78,10159.14
1788305700,9999.78,10149.24
1788306000,9999.78,10143.3
1788306300,9999.78,10147.06
1788306600,9999.78,10154.6
1788306900,9999.78,10166.01
1788307200,9999.78,10183.37
1788307500,9999.78,10164.32
1788307800,9999.78,10189.94
1788308100,9999.78,10169.27
1788308400,9999.78,10170.87
1788308700,9999.78,10163.01
1788309000,9999.78,10178.56
1788309300,9999.78,10191.92
1788309600,9999.78,10174.77
1788309900,9999.78,10162.88
1788310200,9999.78,10187.82
1788310500,9999.78,10222.86
1788310800,9999.78,10219.04
1788311100,9999.78,10234.24
1788311400,9999.78,10246.32
1788311700,9999.78,10212.38
1788312000,9999.78,10199.99
1788312300,9999.78,10194.71
1788312600,9999.78,10212.02
1788312900,9999.78,10244.38
1788313200,9999.78,10251.06
1788313500,9999.78,10244.46
1788313800,9999.78,10257.24
1788314100,9999.78,10292.35
1788314400,9999.78,10317.78
1788314700,9999.78,10298.85
1788315000,9999.78,10310.62
1788315300,9999.78,10297.53
1788315600,9999.78,10280.53
1788315900,9999.78,10268.81
1788316200,9999.78,10263.75
1788316500,9999.78,10251.22
1788316800,9999.78,10234.15
1788317100,9999.78,10244.11
1788317400,9999.78,10239.68
1788317700,9999.78,10259.4
1788318000,9999.78,10271.06
1788318300,9999.78,10277.31
1788318600,9999.78,10284.78
1788318900,9999.78,10278.96
1788319200,9999.78,10290.79
1788319500,9999.78,10308.23
1788319800,9999.78,10308.24
1788320100,9999.78,10341.63
1788320400,9999.78,10317.48
1788320700,9999.78,10329.0
1788321000,9999.78,10286.56
1788321300,9999.78,10277.48
1788321600,9999.78,10269.61
1788321900,9999.78,10267.02
1788322200,9999.78,10262.82
1788322500,9999.78,10265.82
1788322800,9999.78,10269.21
1788323100,9999.78,10265.57
1788323400,9999.78,10271.03
1788323700,9999.78,10260.14
1788324000,9999.78,10264.47
1788324300,9999.78,10263.87
1788324600,9999.78,10259.55
1788324900,9999.78,10258.08
1788325200,9999.78,10253.21
1788325501,9999.78,10256.34
1788325800,9999.78,10263.7
1788326100,9999.78,10243.06
1788326400,9999.78,10238.28
1788326700,9999.78,10245.87
1788327000,9999.78,10230.26
1788327300,9999.78,10185.14
1788327600,9999.78,10208.94
1788327900,9999.78,10189.89
1788328200,9999.78,10179.76
1788328500,9999.78,10201.53
1788328800,9999.78,10202.54
1788329100,9999.78,10209.48
1788329400,9999.78,10186.11
1788329700,9999.78,10176.68
1788330000,9999.78,10178.51
1788330300,9999.78,10175.82
1788330600,9999.78,10190.6
1788330900,9999.78,10201.49
1788331200,9999.78,10183.44
1788331500,9999.78,10186.01
1788331800,9999.78,10215.09
1788332100,9999.78,10218.36
1788332400,9999.78,10195.68
1788332700,9999.78,10197.28
1788333000,9999.78,10177.54
1788333300,9999.78,10175.13
1788333600,9999.78,10169.43
1788333900,9999.78,10169.09
1788334200,9999.78,10175.1
1788334500,9999.78,10173.75
1788334800,9999.78,10175.52
1788335100,9999.78,10190.92
1788335400,9999.78,10193.24
1788335700,9999.78,10192.61
1788336000,9999.78,10189.46
1788336300,9999.78,10174.04
1788336600,9999.78,10163.24
1788336900,9999.78,10180.49
1788337200,9999.78,10179.86
1788337500,9999.78,10177.15
1788337800,9999.78,10189.46
1788338100,9999.78,10195.18
1788338400,9999.78,10182.31
1788338700,9999.78,10194.36
1788339000,9999.78,10195.06
1788339300,9999.78,10223.64
1788339600,9999.78,10230.34
1788339900,9999.78,10219.2
1788340200,9999.78,10207.32
1788340500,9999.78,10225.82
1788340800,9999.78,10224.03
1788341100,9999.78,10246.02
1788341400,9999.78,10246.48
1788341700,9999.78,10243.71
1788342000,9999.78,10245.69
1788342300,9999.78,10241.57
1788342600,9999.78,10241.73
1788342900,9999.78,10247.01
1788343200,9999.78,10247.58
1788343500,9999.78,10264.49
1788343800,9999.78,10269.23
1788344100,9999.78,10254.59
1788344400,9999.78,10249.05
1788344700,9999.78,10240.34
1788345000,9999.78,10243.24
1788345300,9999.78,10246.19
1788345600,9999.78,10248.04
1788345900,9999.78,10244.41
1788346200,9999.78,10241.49
1788346500,9999.78,10249.0
1788346800,9999.78,10244.75
1788347100,9999.78,10231.91
1788347400,9999.78,10231.33
1788347700,9999.78,10192.64
1788348001,9999.78,10206.65
1788348300,9999.78,10206.57
1788348600,9999.78,10195.76
1788348900,9999.78,10162.63
1788349200,9999.78,10152.6
1788349500,9999.78,10182.84
1788349800,9999.78,10179.26
1788350100,9999.78,10161.43
1788350400,9999.78,10153.21
1788350700,9999.78,10144.07
1788351000,9999.78,10147.0
1788351300,9999.78,10149.79
1788351600,9999.78,10156.64
1788351900,9999.78,10127.74
1788352200,9999.78,10136.45
1788352500,9999.78,10161.46
1788352800,9999.78,10149.14
1788353100,9999.78,10145.99
1788353400,9999.78,10125.32
1788353700,9999.78,10144.26
1788354000,9999.78,10157.6
1788354300,9999.78,10127.35
1788354600,9999.78,10114.68
1788354900,9999.78,10124.41
1788355200,9999.78,10112.92
1788355500,9999.78,10091.18
1788355800,9999.78,10049.31
1788356100,9999.78,10023.09
1788356400,9999.78,10014.24
1788356700,9999.78,9970.55
1788357000,9999.78,10007.86
1788357300,9999.78,9976.06
1788357600,9999.78,9941.22
1788357900,9999.78,9945.28
1788358200,9911.2,9911.2
1788358500,9911.2,9911.2
1788358800,9911.2,9911.2
1788359100,9911.2,9911.2
1788359400,9911.2,9911.2
1788359700,9911.2,9911.2
1788360000,9911.2,9911.2
1788360300,9911.2,9911.2
1788360600,9911.2,9911.2
1788360900,9911.2,9911.2
1788361200,9911.2,9911.2
1788361500,9911.2,9911.2
1788361800,9911.2,9911.2
1788362100,9911.2,9911.2
1788362400,9911.2,9911.2
1788362700,9911.2,9911.2
1788363000,9911.2,9911.2
1788363300,9911.2,9911.2
1788363600,9911.2,9911.2
1788363900,9911.2,9911.2
1788364200,9911.2,9911.2
1788364500,9911.2,9911.2
1788364800,9911.2,9911.2
1788365100,9911.2,9911.2
1788365400,9911.2,9911.2
1788365700,9911.2,9911.2
1788366000,9911.2,9911.2
1788366300,9911.2,9911.2
1788366600,9911.2,9911.2
1788366900,9911.2,9911.2
1788367200,9911.2,9911.2
1788367500,9911.2,9911.2
1788367800,9911.2,9911.2
1788368100,9911.2,9911.2
1788368400,9911.2,9911.2
1788368700,9911.2,9911.2
1788369000,9911.2,9911.2
1788369300,9911.2,9911.2
1788369600,9911.2,9911.2
1788369900,9911.2,9911.2
1788370200,9911.2,9911.2
1788370500,9911.2,9911.2
1788370800,9911.2,9911.2
1788371100,9911.2,9911.2
1788371401,9911.2,9911.2
1788371700,9911.2,9911.2
1788372000,9911.2,9911.2
1788372300,9911.2,9911.2
1788372600,9911.2,9911.2
1788372900,9911.2,9911.2
1788373200,9911.2,9911.2
1788373500,9911.2,9911.2
1788373800,9911.2,9911.2
1788374100,9911.2,9911.2
1788374400,9911.2,9911.2
1788374700,9911.2,9911.2
1788375001,9911.2,9911.2
1788375300,9911.2,9911.2
1788375600,9911.2,9911.2
1788375900,9911.2,9911.2
1788376200,9911.2,9911.2
1788376500,9911.2,9911.2
1788376800,9911.2,9911.2
1788377100,9911.2,9911.2
1788377400,9911.2,9911.2
1788377700,9911.2,9911.2
1788378000,9911.2,9911.2
1788378300,9911.2,9911.2
1788378600,9911.2,9911.2
1788378900,9911.2,9911.2
1788379200,9911.2,9911.2
1788379500,9911.2,9911.2
1788379800,9911.2,9911.2
1788380100,9911.2,9911.2
1788380400,9911.2,9911.2
1788380701,9911.2,9911.2
1788381000,9911.2,9911.2
1788381300,9911.2,9911.2
1788381600,9911.2,9911.2
1788381900,9911.2,9911.2
1788382201,9911.2,9911.2
1788382500,9911.2,9911.2
1788386430,9911.2,9911.2
1788386700,9911.2,9911.2
1788387000,9911.2,9911.2
1788387300,9911.2,9911.2
1788387600,9911.2,9911.2
1788387900,9911.2,9911.2
1788388200,9911.2,9911.2
1788388500,9911.2,9911.2
1788388800,9911.2,9911.2
1788389100,9911.2,9911.2
1788389400,9911.2,9911.2
1788389701,9911.2,9911.2
1788390000,9911.2,9911.2
1788390300,9911.2,9911.2
1788390600,9911.2,9911.2
1788390901,9911.2,9911.2
1788391200,9911.2,9911.2
1788391500,9911.2,9911.2
1788391800,9911.2,9911.2
1788392101,9911.2,9911.2
1788392400,9911.2,9911.2
1788392700,9911.2,9911.2
1788393000,9911.2,9911.2
1788393300,9911.2,9911.2
1788393600,9911.2,9911.2
1788393900,9911.2,9911.2
1788394200,9911.2,9911.2
1788394500,9911.2,9911.2
1788394800,9911.2,9911.2
1788395100,9911.2,9911.2
1788395400,9911.2,9911.2
1788395700,9911.2,9911.2
1788396000,9911.2,9911.2
1788396300,9911.2,9911.2
1788396600,9911.2,9911.2
1788396900,9911.2,9911.2
1788397200,9911.2,9911.2
1788397500,9911.2,9911.2
1788397800,9911.2,9911.2
1788398100,9911.2,9911.2
1788398400,9911.2,9911.2
1788398700,9911.2,9911.2
1788399000,9911.2,9911.2
1788399300,9911.2,9911.2
1788399600,9911.2,9911.2
1788399900,9911.2,9911.2
1788400200,9911.2,9911.2
1788400500,9911.2,9911.2
1788400800,9911.2,9911.2
1788401100,9911.2,9911.2
1788401400,9911.2,9911.2
1788401700,9911.2,9911.2
1788402000,9911.2,9911.2
1788402300,9911.2,9911.2
1788402600,9911.2,9911.2
1788402900,9911.2,9911.2
1788403200,9911.2,9911.2
1788403500,9911.2,9911.2
1788403800,9911.2,9911.2
1788404100,9911.2,9911.2
1788404400,9911.2,9911.2
1788404700,9911.2,9911.2
1788405000,9911.2,9911.2
1788405300,9911.2,9911.2
1788405600,9911.2,9911.2
1788405900,9911.2,9911.2
1788406200,9911.2,9911.2
1788406500,9911.2,9911.2
1788406800,9911.2,9911.2
1788407100,9911.2,9911.2
1788407400,9911.2,9911.2
1788407700,9911.2,9911.2
1788408000,9911.2,9911.2
1788408300,9911.2,9911.2
1788408600,9911.2,9911.2
1788408900,9911.2,9911.2
1788409200,9911.2,9911.2
1788409500,9911.2,9911.2
1788409800,9911.2,9911.2
1788410100,9911.2,9911.2
1788410400,9911.2,9911.2
1788410700,9911.2,9911.2
1788411000,9911.2,9911.2
1788411300,9911.2,9911.2
1788411600,9911.2,9911.2
1788411900,9911.2,9911.2
1788412200,9911.2,9911.2
1788412500,9911.2,9911.2
1788412800,9911.2,9911.2
1788413100,9911.2,9911.2
1788413400,9911.2,9911.2
1788413700,9911.2,9911.2
1788414000,9911.2,9911.2
1788414300,9911.2,9911.2
1788414600,9911.2,9911.2
1788414900,9911.2,9911.2
1788415200,9911.2,9911.2
1788415500,9911.2,9911.2
1788415800,9911.2,9911.2
1788416100,9911.2,9911.2
1788416400,9911.2,9911.2
1788416700,9911.2,9911.2
1788417000,9911.2,9911.2
1788417300,9911.2,9911.2
1788417600,9911.2,9911.2
1788417900,9911.2,9911.2
1788418200,9911.2,9911.2
1788418500,9911.2,9911.2
1788418800,9911.2,9911.2
1788419100,9911.2,9911.2
1788419400,9911.2,9911.2
1788419700,9911.2,9911.2
1788420000,9911.2,9911.2
1788420300,9911.2,9911.2
1788420600,9911.2,9911.2
1788420900,9911.2,9911.2
1788421200,9911.2,9911.2
1788421500,9911.2,9911.2
1788421800,9911.2,9911.2
1788422100,9911.2,9911.2
1788422400,9911.2,9911.2
1788422700,9911.2,9911.2
1788423000,9911.2,9911.2
1788423300,9911.2,9911.2
1788423600,9911.2,9911.2
1788423900,9911.2,9911.2
1788424200,9911.2,9911.2
1788424500,9911.2,9911.2
1788424800,9911.2,9911.2
1788425100,9911.2,9911.2
1788425401,9911.2,9911.2
1788425700,9911.2,9911.2
1788426000,9911.2,9911.2
1788426300,9911.2,9911.2
1788426600,9911.2,9911.2
1788426900,9911.2,9911.2
1788427200,9911.2,9911.2
1788427500,9911.2,9911.2
1788427800,9911.2,9911.2
1788428100,9911.2,9911.2
1788428400,9911.2,9911.2
1788428700,9911.2,9911.2
1788429000,9911.2,9911.2
1788429300,9911.2,9911.2
1788429600,9911.2,9911.2
1788429900,9911.2,9911.2
1788430200,9911.2,9911.2
1788430500,9911.2,9911.2
1788430800,9911.2,9911.2
1788431100,9911.2,9911.2
1788431400,9911.2,9911.2
1788431700,9911.2,9911.2
1788432000,9911.2,9911.2
1788432300,9911.2,9911.2
1788432600,9911.2,9911.2
1788432900,9911.2,9911.2
1788433200,9911.2,9911.2
1788433500,9911.2,9911.2
1788433800,9911.2,9911.2
1788434100,9911.2,9911.2
1788434400,9911.2,9911.2
1788434700,9911.2,9911.2
1788435000,9911.2,9911.2
1788435300,9911.2,9911.2
1788435600,9911.2,9911.2
1788435901,9911.2,9911.2
1788436200,9911.2,9911.2
1788436500,9911.2,9911.2
1788436800,9911.2,9911.2
1788437100,9911.2,9911.2
1788437400,9911.2,9911.2
1788437700,9911.2,9911.2
1788438000,9911.2,9911.2
1788438300,9911.2,9911.2
1788438600,9911.2,9911.2
1788438900,9911.2,9911.2
1788439200,9911.2,9911.2
1788439500,9911.2,9911.2
1788439800,9911.2,9911.2
1788440100,9911.2,9911.2
1788440400,9911.2,9911.2
1788440700,9910.98,9897.82
1788441000,9910.98,9889.59
1788441300,9910.98,9879.79
1788441600,9910.98,9856.41
1788441900,9910.98,9869.98
1788442200,9910.98,9857.15
1788442500,9910.98,9847.49
1788442800,9910.98,9839.47
1788443100,9818.88,9818.88
1788443400,9818.88,9818.88
1788443700,9818.88,9818.88
1788444000,9818.88,9818.88
1788444300,9818.88,9818.88
1788444600,9818.88,9818.88
1788444900,9818.88,9818.88
1788445200,9818.88,9818.88
1788445500,9818.88,9818.88
1788445800,9818.88,9818.88
1788446100,9818.88,9818.88
1788446400,9818.88,9818.88
1788446700,9818.88,9818.88
1788447000,9818.88,9818.88
1788447300,9818.88,9818.88
1788447600,9818.88,9818.88
1788447900,9818.88,9818.88
1788448200,9818.88,9818.88
1788448500,9818.88,9818.88
1788448800,9818.88,9818.88
1788449100,9818.88,9818.88
1788449400,9818.88,9818.88
1788449700,9818.88,9818.88
1788450000,9818.88,9818.88
1788450300,9818.88,9818.88
1788450600,9818.88,9818.88
1788450900,9818.88,9818.88
1788451200,9818.88,9818.88
1788451500,9818.88,9818.88
1788451800,9818.88,9818.88
1788452100,9818.88,9818.88
1788452400,9818.88,9818.88
1788452700,9818.88,9818.88
1788453000,9818.88,9818.88
1788453300,9818.88,9818.88
1788453600,9818.88,9818.88
1788453900,9818.88,9818.88
1788454200,9818.88,9818.88
1788454500,9818.88,9818.88
1788454800,9818.88,9818.88
1788455100,9818.88,9818.88
1788455400,9818.88,9818.88
1788455700,9818.88,9818.88
1788456001,9818.88,9818.88
1788456300,9818.88,9818.88
1788456600,9818.88,9818.88
1788456900,9818.88,9818.88
1788457200,9818.88,9818.88
1788457500,9818.88,9818.88
1788457800,9818.88,9818.88
1788458100,9818.88,9818.88
1788458400,9818.88,9818.88
1788458700,9818.88,9818.88
1788459000,9818.88,9818.88
1788459300,9818.88,9818.88
1788459600,9818.88,9818.88
1788459900,9818.88,9818.88
1788460200,9818.88,9818.88
1788460500,9818.88,9818.88
1788460800,9818.88,9818.88
1788461100,9818.88,9818.88
1788461400,9818.88,9818.88
1788461700,9818.88,9818.88
1788462000,9818.88,9818.88
1788462300,9818.88,9818.88
1788462600,9818.88,9818.88
1788462900,9818.88,9818.88
1788463200,9818.88,9818.88
1788463500,9818.88,9818.88
1788463800,9818.88,9818.88
1788464100,9818.88,9818.88
1788464400,9818.88,9818.88
1788464700,9818.88,9818.88
1788465000,9818.88,9818.88
1788465300,9818.88,9818.88
1788465600,9818.88,9818.88
1788465900,9818.88,9818.88
1788466200,9818.88,9818.88
1788466501,9818.88,9818.88
1788466800,9818.88,9818.88
1788467100,9818.88,9818.88
1788467400,9818.88,9818.88
1788467700,9818.88,9818.88
1788468000,9818.88,9818.88
1788468300,9818.88,9818.88
1788468600,9818.88,9818.88
1788468900,9818.88,9818.88
1788472830,9818.88,9818.88
1788473100,9818.88,9818.88
1788473400,9818.88,9818.88
1788473700,9818.88,9818.88
1788474000,9818.88,9818.88
1788474301,9818.88,9818.88
1788474600,9818.88,9818.88
1788474900,9818.88,9818.88
1788475200,9818.88,9818.88
1788475500,9818.88,9818.88
1788475800,9818.88,9818.88
1788476101,9818.88,9818.88
1788476400,9818.88,9818.88
1788476701,9818.88,9818.88
1788477000,9818.88,9818.88
1788477300,9818.88,9818.88
1788477600,9818.88,9818.88
1788477900,9818.88,9818.88
1788478200,9818.88,9818.88
1788478500,9818.88,9818.88
1788478801,9818.88,9818.88
1788479100,9818.88,9818.88
1788479400,9818.88,9818.88
1788479700,9818.88,9818.88
1788480000,9818.88,9818.88
1788480300,9818.88,9818.88
1788480600,9818.88,9818.88
1788480900,9818.88,9818.88
1788481200,9818.88,9818.88
1788481500,9818.88,9818.88
1788481800,9818.88,9818.88
1788482100,9818.88,9818.88
1788482400,9818.88,9818.88
1788482700,9818.88,9818.88
1788483000,9818.88,9818.88
1788483300,9818.88,9818.88
1788483600,9818.88,9818.88
1788483900,9818.88,9818.88
1788484200,9818.88,9818.88
1788484500,9818.88,9818.88
1788484800,9818.88,9818.88
1788485100,9818.88,9818.88
1788485400,9818.88,9818.88
1788485700,9818.88,9818.88
1788486000,9818.88,9818.88
1788486300,9818.88,9818.88
1788486600,9818.88,9818.88
1788486900,9818.88,9818.88
1788487200,9818.88,9818.88
1788487500,9818.88,9818.88
1788487800,9818.88,9818.88
1788488100,9818.88,9818.88
1788488400,9818.88,9818.88
1788488700,9818.88,9818.88
1788489000,9818.88,9818.88
1788489300,9818.88,9818.88
1788489600,9818.88,9818.88
1788489900,9818.88,9818.88
1788490200,9818.88,9818.88
1788490500,9818.88,9818.88
1788490800,9818.88,9818.88
1788491100,9818.88,9818.88
1788491400,9818.88,9818.88
1788491700,9818.88,9818.88
1788492001,9818.88,9818.88
1788492300,9818.88,9818.88
1788492600,9818.88,9818.88
1788492900,9818.88,9818.88
1788493200,9818.88,9818.88
1788493500,9818.88,9818.88
1788493800,9818.88,9818.88
1788494100,9818.88,9818.88
1788494400,9818.88,9818.88
1788494700,9818.88,9818.88
1788495000,9818.88,9818.88
1788495300,9818.88,9818.88
1788495600,9818.88,9818.88
1788495901,9818.88,9818.88
1788496200,9818.88,9818.88
1788496500,9818.88,9818.88
1788496800,9818.88,9818.88
1788497100,9818.88,9818.88
1788497400,9818.88,9818.88
1788497700,9818.88,9818.88
1788498000,9818.88,9818.88
1788498300,9818.88,9818.88
1788498601,9818.88,9818.88
1788498900,9818.88,9818.88
1788499200,9818.88,9818.88
1788499500,9818.88,9818.88
1788499800,9818.88,9818.88
1788500100,9818.88,9818.88
1788500400,9818.88,9818.88
1788500700,9818.88,9818.88
1788501000,9818.88,9818.88
1788501300,9818.88,9818.88
1788501600,9818.88,9818.88
1788501900,9818.88,9818.88
1788502200,9818.88,9818.88
1788502500,9818.88,9818.88
1788502800,9818.88,9818.88
1788503100,9818.88,9818.88
1788503400,9818.88,9818.88
1788503700,9818.88,9818.88
1788504000,9818.88,9818.88
1788504300,9818.88,9818.88
1788504600,9818.88,9818.88
1788504900,9818.88,9818.88
1788505200,9818.88,9818.88
1788505500,9818.88,9818.88
1788505800,9818.88,9818.88
1788506100,9818.88,9818.88
1788506400,9818.88,9818.88
1788506700,9818.88,9818.88
1788507000,9818.88,9818.88
1788507300,9818.88,9818.88
1788507600,9818.88,9818.88
1788507900,9818.88,9818.88
1788508200,9818.88,9818.88
1788508502,9818.88,9818.88
1788508800,9818.88,9818.88
1788509100,9818.88,9818.88
1788509400,9818.88,9818.88
1788509700,9818.88,9818.88
1788510000,9818.88,9818.88
1788510300,9818.88,9818.88
1788510600,9818.88,9818.88
1788510900,9818.88,9818.88
1788511200,9818.88,9818.88
1788511500,9818.88,9818.88
1788511800,9818.88,9818.88
1788512100,9818.88,9818.88
1788512400,9818.88,9818.88
1788512700,9818.88,9818.88
1788513000,9818.88,9818.88
1788513300,9818.88,9818.88
1788513600,9818.88,9818.88
1788513901,9818.88,9818.88
1788514200,9818.88,9818.88
1788514500,9818.88,9818.88
1788514800,9818.88,9818.88
1788515100,9818.88,9818.88
1788515400,9818.88,9818.88
1788515700,9818.88,9818.88
1788516000,9818.88,9818.88
1788516300,9818.88,9818.88
1788516600,9818.88,9818.88
1788516900,9818.88,9818.88
1788517200,9818.88,9818.88
1788517500,9818.88,9818.88
1788517800,9818.88,9818.88
1788518100,9818.88,9818.88
1788518400,9818.88,9818.88
1788518700,9818.88,9818.88
1788519000,9818.88,9818.88
1788519301,9818.88,9818.88
1788519600,9818.88,9818.88
1788519900,9818.88,9818.88
1788520200,9818.88,9818.88
1788520500,9818.88,9818.88
1788520800,9818.88,9818.88
1788521100,9818.88,9818.88
1788521400,9818.88,9818.88
1788521700,9818.88,9818.88
1788522000,9818.88,9818.88
1788522300,9818.88,9818.88
1788522600,9818.88,9818.88
1788522900,9818.88,9818.88
1788523200,9818.88,9818.88
1788523500,9818.88,9818.88
1788523800,9818.88,9818.88
1788524100,9818.88,9818.88
1788524400,9818.88,9818.88
1788524700,9818.88,9818.88
1788525000,9818.88,9818.88
1788525300,9818.88,9818.88
1788525600,9818.88,9818.88
1788525900,9818.88,9818.88
1788526200,9818.88,9818.88
1788526500,9818.88,9818.88
1788526800,9818.88,9818.88
1788527100,9818.66,9876.97
1788527400,9818.66,9842.92
1788527700,9818.66,9817.77
1788528000,9818.66,9800.98
1788528300,9818.66,9775.18
1788528600,9818.66,9745.1
1788528900,9732.37,9732.37
1788529200,9732.37,9732.37
1788529500,9732.37,9732.37
1788529800,9732.37,9732.37
1788530100,9732.37,9732.37
1788530400,9732.37,9732.37
1788530700,9732.37,9732.37
1788531000,9732.37,9732.37
1788531300,9732.37,9732.37
1788531600,9732.37,9732.37
1788531900,9732.37,9732.37
1788532200,9732.37,9732.37
1788532500,9732.37,9732.37
1788532800,9732.37,9732.37
1788533100,9732.37,9732.37
1788533400,9732.37,9732.37
1788533700,9732.37,9732.37
1788534000,9732.37,9732.37
1788534300,9732.37,9732.37
1788534600,9732.37,9732.37
1788534900,9732.37,9732.37
1788535200,9732.37,9732.37
1788535500,9732.37,9732.37
1788535800,9732.37,9732.37
1788536100,9732.37,9732.37
1788536400,9732.37,9732.37
1788536700,9732.37,9732.37
1788537000,9732.37,9732.37
1788537300,9732.37,9732.37
1788537600,9732.37,9732.37
1788537900,9732.37,9732.37
1788538200,9732.37,9732.37
1788538500,9732.37,9732.37
1788538800,9732.37,9732.37
1788539100,9732.37,9732.37
1788539400,9732.37,9732.37
1788539700,9732.37,9732.37
1788540000,9732.37,9732.37
1788540300,9732.37,9732.37
1788540600,9732.37,9732.37
1788540900,9732.37,9732.37
1788541200,9732.37,9732.37
1788541500,9732.37,9732.37
1788541800,9732.37,9732.37
1788542100,9732.37,9732.37
1788542400,9732.37,9732.37
1788542700,9732.37,9732.37
1788543000,9732.37,9732.37
1788543300,9732.37,9732.37
1788543600,9732.37,9732.37
1788543900,9732.37,9732.37
1788544200,9732.37,9732.37
1788544500,9732.37,9732.37
1788544800,9732.37,9732.37
1788545100,9732.37,9732.37
1788545400,9732.37,9732.37
1788545700,9732.37,9732.37
1788546000,9732.37,9732.37
1788546300,9732.37,9732.37
1788546600,9732.37,9732.37
1788546900,9732.37,9732.37
1788547200,9732.37,9732.37
1788547500,9732.37,9732.37
1788547800,9732.37,9732.37
1788548100,9732.37,9732.37
1788548400,9732.37,9732.37
1788548700,9732.37,9732.37
1788549001,9732.37,9732.37
1788549300,9732.37,9732.37
1788549600,9732.37,9732.37
1788549900,9732.37,9732.37
1788550200,9732.37,9732.37
1788550500,9732.37,9732.37
1788550801,9732.37,9732.37
1788551100,9732.37,9732.37
1788551400,9732.37,9732.37
1788551700,9732.37,9732.37
1788552000,9732.37,9732.37
1788552300,9732.37,9732.37
1788552600,9732.37,9732.37
1788552900,9732.37,9732.37
1788553200,9732.37,9732.37
1788553501,9732.37,9732.37
1788553800,9732.37,9732.37
1788554100,9732.37,9732.37
1788554400,9732.37,9732.37
1788554700,9732.37,9732.37
1788555000,9732.37,9732.37
1788555300,9732.37,9732.37
1788732090,9732.37,9732.37
1788732300,9732.37,9732.37
1788732600,9732.37,9732.37
1788732900,9732.37,9732.37
1788733202,9732.37,9732.37
1788733500,9732.37,9732.37
1788733800,9732.37,9732.37
1788734100,9732.37,9732.37
1788734400,9732.37,9732.37
1788734700,9732.37,9732.37
1788735000,9732.37,9732.37
1788735300,9732.37,9732.37
1788735600,9732.37,9732.37
1788735900,9732.37,9732.37
1788736201,9732.37,9732.37
1788736500,9732.37,9732.37
1788736800,9732.37,9732.37
1788737100,9732.37,9732.37
1788737400,9732.37,9732.37
1788737702,9732.37,9732.37
1788738001,9732.37,9732.37
1788738300,9732.37,9732.37
1788738600,9732.37,9732.37
1788738900,9732.37,9732.37
1788739200,9732.37,9732.37
1788739500,9732.37,9732.37
1788739800,9732.37,9732.37
1788740100,9732.37,9732.37
1788740400,9732.37,9732.37
1788740700,9732.37,9732.37
1788741000,9732.37,9732.37
1788741300,9732.37,9732.37
1788741600,9732.37,9732.37
1788741900,9732.37,9732.37
1788742200,9732.37,9732.37
1788742500,9732.37,9732.37
1788742800,9732.37,9732.37
1788743100,9732.37,9732.37
1788743400,9732.37,9732.37
1788743700,9732.37,9732.37
1788744000,9732.37,9732.37
1788744300,9732.37,9732.37
1788744600,9732.37,9732.37
1788744900,9732.37,9732.37
1788745200,9732.37,9732.37
1788745500,9732.37,9732.37
1788745800,9732.37,9732.37
1788746100,9732.37,9732.37
1788746400,9732.37,9732.37
1788746700,9732.37,9732.37
1788747000,9732.37,9732.37
1788747300,9732.37,9732.37
1788747601,9732.37,9732.37
1788747900,9732.37,9732.37
1788748200,9732.37,9732.37
1788748500,9732.37,9732.37
1788748800,9732.37,9732.37
1788749100,9732.37,9732.37
1788749400,9732.37,9732.37
1788749700,9732.37,9732.37
1788750000,9732.37,9732.37
1788750300,9732.37,9732.37
1788750600,9732.37,9732.37
1788750900,9732.37,9732.37
1788751200,9732.37,9732.37
1788751500,9732.37,9732.37
1788751800,9732.37,9732.37
1788752100,9732.37,9732.37
1788752400,9732.37,9732.37
1788752700,9732.37,9732.37
1788753000,9732.37,9732.37
1788753300,9732.37,9732.37
1788753600,9732.37,9732.37
1788753900,9732.37,9732.37
1788754200,9732.37,9732.37
1788754500,9732.37,9732.37
1788754800,9732.37,9732.37
1788755100,9732.37,9732.37
1788755400,9732.37,9732.37
1788755700,9732.37,9732.37
1788756001,9732.37,9732.37
1788756300,9732.37,9732.37
1788756600,9732.37,9732.37
1788756901,9732.37,9732.37
1788757200,9732.37,9732.37
1788757500,9732.37,9732.37
1788757801,9732.37,9732.37
1788758100,9732.37,9732.37
1788758400,9732.37,9732.37
1788758700,9732.37,9732.37
1788759000,9732.37,9732.37
1788759301,9732.37,9732.37
1788759600,9732.37,9732.37
1788759900,9732.37,9732.37
1788760200,9732.37,9732.37
1788760500,9732.37,9732.37
1788760800,9732.37,9732.37
1788761100,9732.37,9732.37
1788761400,9732.37,9732.37
1788761700,9732.37,9732.37
1788762000,9732.37,9732.37
1788762300,9732.37,9732.37
1788762600,9732.37,9732.37
1788762900,9732.37,9732.37
1788763200,9732.37,9732.37
1788763500,9732.37,9732.37
1788763800,9732.37,9732.37
1788764100,9732.37,9732.37
1788764400,9732.37,9732.37
1788764700,9732.37,9732.37
1788765000,9732.37,9732.37
1788765300,9732.37,9732.37
1788765600,9732.37,9732.37
1788765900,9732.37,9732.37
1788766200,9732.37,9732.37
1788766500,9732.37,9732.37
1788766800,9732.37,9732.37
1788767100,9732.37,9732.37
1788767400,9732.37,9732.37
1788767700,9732.37,9732.37
1788768000,9732.37,9732.37
1788768300,9732.37,9732.37
1788768600,9732.37,9732.37
1788768900,9732.37,9732.37
1788769200,9732.37,9732.37
1788769500,9732.37,9732.37
1788769800,9732.37,9732.37
1788770100,9732.37,9732.37
1788770400,9732.37,9732.37
1788770701,9732.37,9732.37
1788771000,9732.37,9732.37
1788771300,9732.37,9732.37
1788771600,9732.37,9732.37
1788771900,9732.37,9732.37
1788772200,9732.37,9732.37
1788772500,9732.37,9732.37
1788772800,9732.37,9732.37
1788773100,9732.37,9732.37
1788773400,9732.37,9732.37
1788773700,9732.37,9732.37
1788774000,9732.37,9732.37
1788774300,9732.37,9732.37
1788774600,9732.37,9732.37
1788774900,9732.37,9732.37
1788775200,9732.37,9732.37
1788775500,9732.37,9732.37
1788775800,9732.37,9732.37
1788776100,9732.37,9732.37
1788776400,9732.37,9732.37
1788776700,9732.37,9732.37
1788777000,9732.37,9732.37
1788777300,9732.37,9732.37
1788777600,9732.37,9732.37
1788777900,9732.37,9732.37
1788778200,9732.37,9732.37
1788778500,9732.37,9732.37
1788778800,9732.37,9732.37
1788779100,9732.37,9732.37
1788779400,9732.37,9732.37
1788779700,9732.37,9732.37
1788780000,9732.37,9732.37
1788780300,9732.37,9732.37
1788780600,9732.37,9732.37
1788780900,9732.37,9732.37
1788781200,9732.37,9732.37
1788781500,9732.37,9732.37
1788781800,9732.37,9732.37
1788782100,9732.37,9732.37
1788782400,9732.37,9732.37
1788782700,9732.37,9732.37
1788783000,9732.37,9732.37
1788783300,9732.37,9732.37
1788783600,9732.37,9732.37
1788783900,9732.37,9732.37
1788784200,9732.37,9732.37
1788784500,9732.37,9732.37
1788784800,9732.37,9732.37
1788785100,9732.37,9732.37
1788785401,9732.37,9732.37
1788785700,9732.37,9732.37
1788786000,9732.37,9732.37
1788786300,9732.37,9732.37
1788786600,9732.37,9732.37
1788786900,9732.37,9732.37
1788787200,9732.37,9732.37
1788787500,9732.37,9732.37
1788787800,9732.37,9732.37
1788788100,9732.37,9732.37
1788788400,9732.37,9732.37
1788788700,9732.37,9732.37
1788789000,9732.37,9732.37
1788789300,9732.37,9732.37
1788789600,9732.37,9732.37
1788789900,9732.37,9732.37
1788790200,9732.37,9732.37
1788790500,9732.37,9732.37
1788790800,9732.37,9732.37
1788791100,9732.37,9732.37
1788791400,9732.37,9732.37
1788791700,9732.37,9732.37
1788792000,9732.37,9732.37
1788792300,9732.37,9732.37
1788792600,9732.37,9732.37
1788792900,9732.37,9732.37
1788793200,9732.37,9732.37
1788793500,9732.37,9732.37
1788793800,9732.37,9732.37
1788794100,9732.37,9732.37
1788794400,9732.37,9732.37
1788794700,9732.37,9732.37
1788795000,9732.37,9732.37
1788795300,9732.37,9732.37
1788795600,9732.37,9732.37
1788795900,9732.37,9732.37
1788796200,9732.37,9732.37
1788796500,9732.37,9732.37
1788796800,9732.37,9732.37
1788797101,9732.37,9732.37
1788797400,9732.37,9732.37
1788797700,9732.37,9732.37
1788798000,9732.37,9732.37
1788798300,9732.37,9732.37
1788798600,9732.37,9732.37
1788798901,9732.37,9732.37
1788799200,9732.37,9732.37
1788799500,9732.37,9732.37
1788799800,9732.37,9732.37
1788800100,9732.37,9732.37
1788800400,9732.37,9732.37
1788800700,9732.37,9732.37
1788801001,9732.37,9732.37
1788801300,9732.37,9732.37
1788801600,9732.37,9732.37
1788801900,9732.37,9732.37
1788802200,9732.37,9732.37
1788802500,9732.37,9732.37
1788802800,9732.37,9732.37
1788803100,9732.37,9732.37
1788803400,9732.37,9732.37
1788803700,9732.37,9732.37
1788804000,9732.37,9732.37
1788804300,9732.37,9732.37
1788804600,9732.37,9732.37
1788804900,9732.37,9732.37
1788805200,9732.37,9732.37
1788805500,9732.37,9732.37
1788818491,9732.37,9732.37
1788818700,9732.37,9732.37
1788819000,9732.37,9732.37
1788819300,9732.37,9732.37
1788819601,9732.37,9732.37
1788819900,9732.37,9732.37
1788820200,9732.37,9732.37
1788820500,9732.37,9732.37
1788820800,9732.37,9732.37
1788821100,9732.37,9732.37
1788821400,9732.37,9732.37
1788821700,9732.37,9732.37
1788822000,9732.37,9732.37
1788822300,9732.37,9732.37
1788822600,9732.37,9732.37
1788822901,9732.37,9732.37
1788823200,9732.37,9732.37
1788823500,9732.37,9732.37
1788823800,9732.37,9732.37
1788824100,9732.37,9732.37
1788824400,9732.37,9732.37
1788824700,9732.37,9732.37
1788825001,9732.37,9732.37
1788825300,9732.37,9732.37
1788825600,9732.37,9732.37
1788825900,9732.37,9732.37
1788826200,9732.37,9732.37
1788826500,9732.37,9732.37
1788826800,9732.37,9732.37
1788827100,9732.37,9732.37
1788827400,9732.37,9732.37
1788827700,9732.37,9732.37
1788828000,9732.37,9732.37
1788828300,9732.37,9732.37
1788828600,9732.37,9732.37
1788828900,9732.37,9732.37
1788829200,9732.37,9732.37
1788829500,9732.37,9732.37
1788829800,9732.37,9732.37
1788830100,9732.37,9732.37
1788830400,9732.37,9732.37
1788830700,9732.37,9732.37
1788831000,9732.37,9732.37
1788831300,9732.37,9732.37
1788831600,9732.37,9732.37
1788831900,9732.37,9732.37
1788832200,9732.37,9732.37
1788832500,9732.37,9732.37
1788832800,9732.37,9732.37
1788833100,9732.37,9732.37
1788833400,9732.37,9732.37
1788833700,9732.37,9732.37
1788834000,9732.37,9732.37
1788834300,9732.37,9732.37
1788834600,9732.37,9732.37
1788834900,9732.37,9732.37
1788835200,9732.37,9732.37
1788835500,9732.37,9732.37
1788835800,9732.37,9732.37
1788836100,9732.37,9732.37
1788836400,9732.37,9732.37
1788836700,9732.37,9732.37
1788837000,9732.37,9732.37
1788837300,9732.37,9732.37
1788837600,9732.37,9732.37
1788837900,9732.37,9732.37
1788838200,9732.37,9732.37
1788838500,9732.37,9732.37
1788838800,9732.37,9732.37
1788839100,9732.37,9732.37
1788839400,9732.37,9732.37
1788839700,9732.37,9732.37
1788840000,9732.37,9732.37
1788840300,9732.37,9732.37
1788840600,9732.37,9732.37
1788840900,9732.37,9732.37
1788841200,9732.37,9732.37
1788841500,9732.37,9732.37
1788841800,9732.37,9732.37
1788842100,9732.37,9732.37
1788842400,9732.37,9732.37
1788842701,9732.37,9732.37
1788843000,9732.37,9732.37
1788843300,9732.37,9732.37
1788843600,9732.37,9732.37
1788843900,9732.37,9732.37
1788844200,9732.37,9732.37
1788844500,9732.37,9732.37
1788844800,9732.37,9732.37
1788845100,9732.37,9732.37
1788845400,9732.37,9732.37
1788845700,9732.37,9732.37
1788846000,9732.37,9732.37
1788846300,9732.37,9732.37
1788846600,9732.37,9732.37
1788846900,9732.37,9732.37
1788847200,9732.37,9732.37
1788847500,9732.37,9732.37
1788847800,9732.37,9732.37
1788848100,9732.37,9732.37
1788848400,9732.37,9732.37
1788848700,9732.37,9732.37
1788849000,9732.37,9732.37
1788849300,9732.37,9732.37
1788849600,9732.37,9732.37
1788849900,9732.37,9732.37
1788850200,9732.37,9732.37
1788850500,9732.37,9732.37
1788850800,9732.37,9732.37
1788851100,9732.37,9732.37
1788851400,9732.37,9732.37
1788851700,9732.37,9732.37
1788852000,9732.37,9732.37
1788852300,9732.37,9732.37
1788852600,9732.37,9732.37
1788852900,9732.37,9732.37
1788853200,9732.37,9732.37
1788853500,9732.37,9732.37
1788853800,9732.37,9732.37
1788854100,9732.37,9732.37
1788854400,9732.37,9732.37
1788854700,9732.37,9732.37
1788855000,9732.37,9732.37
1788855300,9732.37,9732.37
1788855600,9732.37,9732.37
1788855900,9732.37,9732.37
1788856200,9732.37,9732.37
1788856500,9732.37,9732.37
1788856800,9732.37,9732.37
1788857100,9732.37,9732.37
1788857400,9732.37,9732.37
1788857700,9732.37,9732.37
1788858000,9732.37,9732.37
1788858300,9732.37,9732.37
1788858600,9732.37,9732.37
1788858900,9732.37,9732.37
1788859200,9732.37,9732.37
1788859500,9732.37,9732.37
1788859800,9732.37,9732.37
1788860100,9732.37,9732.37
1788860400,9732.37,9732.37
1788860700,9732.37,9732.37
1788861000,9732.37,9732.37
1788861300,9732.37,9732.37
1788861600,9732.37,9732.37
1788861900,9732.37,9732.37
1788862200,9732.37,9732.37
1788862500,9732.37,9732.37
1788862800,9732.37,9732.37
1788863100,9732.37,9732.37
1788863400,9732.37,9732.37
1788863700,9732.37,9732.37
1788864000,9732.37,9732.37
1788864301,9732.37,9732.37
1788864600,9732.37,9732.37
1788864900,9732.37,9732.37
1788865200,9732.37,9732.37
1788865500,9732.37,9732.37
1788865800,9732.37,9732.37
1788866100,9732.37,9732.37
1788866400,9732.37,9732.37
1788866700,9732.37,9732.37
1788867000,9732.37,9732.37
1788867300,9732.37,9732.37
1788867600,9732.37,9732.37
1788867900,9732.37,9732.37
1788868200,9732.37,9732.37
1788868500,9732.37,9732.37
1788868800,9732.37,9732.37
1788869100,9732.37,9732.37
1788869400,9732.37,9732.37
1788869700,9732.37,9732.37
1788870000,9732.37,9732.37
1788870300,9732.37,9732.37
1788870600,9732.37,9732.37
1788870900,9732.37,9732.37
1788871200,9732.37,9732.37
1788871500,9732.37,9732.37
1788871800,9732.37,9732.37
1788872100,9732.37,9732.37
1788872400,9732.37,9732.37
1788872700,9732.37,9732.37
1788873000,9732.37,9732.37
1788873300,9732.37,9732.37
1788873600,9732.37,9732.37
1788873900,9732.37,9732.37
1788874200,9732.37,9732.37
1788874500,9732.37,9732.37
1788874800,9732.37,9732.37
1788875100,9732.37,9732.37
1788875400,9732.37,9732.37
1788875700,9732.37,9732.37
1788876000,9732.37,9732.37
1788876300,9732.37,9732.37
1788876600,9732.37,9732.37
1788876900,9732.37,9732.37
1788877200,9732.37,9732.37
1788877500,9732.37,9732.37
1788877800,9732.37,9732.37
1788878100,9732.37,9732.37
1788878400,9732.37,9732.37
1788878700,9732.37,9732.37
1788879000,9732.37,9732.37
1788879300,9732.37,9732.37
1788879600,9732.37,9732.37
1788879900,9732.37,9732.37
1788880200,9732.37,9732.37
1788880500,9732.37,9732.37
1788880800,9732.37,9732.37
1788881100,9732.37,9732.37
1788881400,9732.37,9732.37
1788881700,9732.37,9732.37
1788882000,9732.37,9732.37
1788882300,9732.37,9732.37
1788882600,9732.37,9732.37
1788882900,9732.37,9732.37
1788883200,9732.37,9732.37
1788883500,9732.37,9732.37
1788883800,9732.37,9732.37
1788884100,9732.37,9732.37
1788884400,9732.37,9732.37
1788884700,9732.37,9732.37
1788885000,9732.37,9732.37
1788885300,9732.37,9732.37
1788885600,9732.37,9732.37
1788885900,9732.37,9732.37
1788886200,9732.37,9732.37
1788886500,9732.37,9732.37
1788886800,9732.37,9732.37
1788887100,9732.37,9732.37
1788887400,9732.37,9732.37
1788887700,9732.37,9732.37
1788888000,9732.37,9732.37
1788888300,9732.37,9732.37
1788888600,9732.37,9732.37
1788888901,9732.37,9732.37
1788889200,9732.37,9732.37
1788889500,9732.37,9732.37
1788889800,9732.37,9732.37
1788890100,9732.37,9732.37
1788890400,9732.37,9732.37
1788890700,9732.37,9732.37
1788891000,9732.37,9732.37
1788891300,9732.37,9732.37
1788891600,9732.37,9732.37
1788891900,9732.37,9732.37
1788892200,9732.37,9732.37
1788892500,9732.37,9732.37
1788892800,9732.37,9732.37
1788893100,9732.37,9732.37
1788893400,9732.37,9732.37
1788893700,9732.37,9732.37
1788894000,9732.37,9732.37
1788894300,9732.37,9732.37
1788894600,9732.37,9732.37
1788894900,9732.37,9732.37
1788895200,9732.37,9732.37
1788895500,9732.37,9732.37
1788895800,9732.37,9732.37
1788896100,9732.37,9732.37
1788896400,9732.37,9732.37
1788896700,9732.37,9732.37
1788897000,9732.37,9732.37
1788897300,9732.37,9732.37
1788897600,9732.37,9732.37
1788897900,9732.37,9732.37
1788898200,9732.37,9732.37
1788898500,9732.37,9732.37
1788898800,9732.37,9732.37
1788899100,9732.37,9732.37
1788899400,9732.37,9732.37
1788899700,9732.37,9732.37
1788900000,9732.37,9732.37
1788900300,9732.37,9732.37
1788900600,9732.37,9732.37
1788900900,9732.37,9732.37
1788904830,9732.37,9732.37
1788905100,9732.37,9732.37
1788905400,9732.37,9732.37
1788905700,9732.37,9732.37
1788906001,9732.37,9732.37
1788906300,9732.37,9732.37
1788906600,9732.37,9732.37
1788906901,9732.37,9732.37
1788907200,9732.37,9732.37
1788907500,9732.37,9732.37
1788907801,9732.37,9732.37
1788908100,9732.37,9732.37
1788908400,9732.37,9732.37
1788908700,9732.37,9732.37
1788909000,9732.37,9732.37
1788909300,9732.37,9732.37
1788909600,9732.37,9732.37
1788909900,9732.37,9732.37
1788910200,9732.37,9732.37
1788910500,9732.37,9732.37
1788910800,9732.37,9732.37
1788911100,9732.37,9732.37
1788911400,9732.37,9732.37
1788911700,9732.37,9732.37
1788912000,9732.37,9732.37
1788912300,9732.37,9732.37
1788912600,9732.37,9732.37
1788912900,9732.37,9732.37
1788913200,9732.37,9732.37
1788913500,9732.37,9732.37
1788913800,9732.37,9732.37
1788914100,9732.37,9732.37
1788914400,9732.37,9732.37
1788914700,9732.37,9732.37
1788915000,9732.37,9732.37
1788915300,9732.37,9732.37
1788915600,9732.37,9732.37
1788915900,9732.37,9732.37
1788916200,9732.37,9732.37
1788916500,9732.37,9732.37
1788916800,9732.37,9732.37
1788917100,9732.37,9732.37
1788917400,9732.37,9732.37
1788917700,9732.37,9732.37
1788918000,9732.37,9732.37
1788918300,9732.37,9732.37
1788918600,9732.37,9732.37
1788918900,9732.37,9732.37
1788919200,9732.37,9732.37
1788919500,9732.37,9732.37
1788919800,9732.37,9732.37
1788920100,9732.37,9732.37
1788920400,9732.37,9732.37
1788920700,9732.37,9732.37
1788921000,9732.37,9732.37
1788921300,9732.37,9732.37
1788921600,9732.37,9732.37
1788921900,9732.37,9732.37
1788922200,9732.37,9732.37
1788922500,9732.37,9732.37
1788922800,9732.37,9732.37
1788923100,9732.37,9732.37
1788923400,9732.37,9732.37
1788923700,9732.37,9732.37
1788924000,9732.37,9732.37
1788924300,9732.37,9732.37
1788924600,9732.37,9732.37
1788924900,9732.37,9732.37
1788925200,9732.37,9732.37
1788925500,9732.37,9732.37
1788925800,9732.37,9732.37
1788926100,9732.37,9732.37
1788926400,9732.37,9732.37
1788926701,9732.37,9732.37
1788927000,9732.37,9732.37
1788927300,9732.37,9732.37
1788927600,9732.37,9732.37
1788927900,9732.37,9732.37
1788928200,9732.37,9732.37
1788928501,9732.37,9732.37
1788928800,9732.37,9732.37
1788929100,9732.37,9732.37
1788929400,9732.37,9732.37
1788929701,9732.37,9732.37
1788930000,9732.37,9732.37
1788930300,9732.37,9732.37
1788930600,9732.37,9732.37
1788930900,9732.37,9732.37
1788931201,9732.37,9732.37
1788931500,9732.37,9732.37
1788931800,9732.37,9732.37
1788932100,9732.37,9732.37
1788932400,9732.37,9732.37
1788932700,9732.37,9732.37
1788933000,9732.37,9732.37
1788933300,9732.37,9732.37
1788933600,9732.37,9732.37
1788933900,9732.37,9732.37
1788934200,9732.37,9732.37
1788934500,9732.37,9732.37
1788934800,9732.37,9732.37
1788935100,9732.37,9732.37
1788935400,9732.37,9732.37
1788935700,9732.37,9732.37
1788936000,9732.37,9732.37
1788936300,9732.37,9732.37
1788936600,9732.37,9732.37
1788936900,9732.37,9732.37
1788937200,9732.37,9732.37
1788937500,9732.37,9732.37
1788937800,9732.37,9732.37
1788938100,9732.37,9732.37
1788938400,9732.37,9732.37
1788938701,9732.37,9732.37
1788939000,9732.37,9732.37
1788939300,9732.37,9732.37
1788939600,9732.37,9732.37
1788939900,9732.37,9732.37
1788940200,9732.37,9732.37
1788940500,9732.37,9732.37
1788940800,9732.37,9732.37
1788941101,9732.37,9732.37
1788941400,9732.37,9732.37
1788941700,9732.37,9732.37
1788942000,9732.37,9732.37
1788942300,9732.37,9732.37
1788942600,9732.37,9732.37
1788942900,9732.37,9732.37
1788943200,9732.37,9732.37
1788943500,9732.37,9732.37
1788943800,9732.37,9732.37
1788944100,9732.37,9732.37
1788944400,9732.37,9732.37
1788944700,9732.37,9732.37
1788945000,9732.37,9732.37
1788945300,9732.37,9732.37
1788945600,9732.37,9732.37
1788945900,9732.37,9732.37
1788946200,9732.37,9732.37
1788946501,9732.37,9732.37
1788946800,9732.37,9732.37
1788947101,9732.37,9732.37
1788947400,9732.37,9732.37
1788947700,9732.37,9732.37
1788948000,9732.37,9732.37
1788948300,9732.37,9732.37
1788948600,9732.37,9732.37
1788948900,9732.37,9732.37
1788949200,9732.37,9732.37
1788949500,9732.37,9732.37
1788949800,9732.37,9732.37
1788950100,9732.37,9732.37
1788950401,9732.37,9732.37
1788950700,9732.37,9732.37
1788951001,9732.37,9732.37
1788951300,9732.37,9732.37
1788951600,9732.37,9732.37
1788951900,9732.37,9732.37
1788952200,9732.37,9732.37
1788952500,9732.37,9732.37
1788952800,9732.37,9732.37
1788953100,9732.37,9732.37
1788953400,9732.37,9732.37
1788953700,9732.37,9732.37
1788954000,9732.37,9732.37
1788954300,9732.37,9732.37
1788954600,9732.37,9732.37
1788954900,9732.37,9732.37
1788955200,9732.37,9732.37
1788955500,9732.37,9732.37
1788955800,9732.37,9732.37
1788956100,9732.37,9732.37
1788956400,9732.37,9732.37
1788956700,9732.37,9732.37
1788957000,9732.37,9732.37
1788957300,9732.37,9732.37
1788957600,9732.37,9732.37
1788957901,9732.37,9732.37
1788958200,9732.37,9732.37
1788958500,9732.37,9732.37
1788958800,9732.37,9732.37
1788959100,9732.37,9732.37
1788959400,9732.37,9732.37
1788959700,9732.37,9732.37
1788960000,9732.37,9732.37
1788960300,9732.37,9732.37
1788960600,9732.37,9732.37
1788960900,9732.37,9732.37
1788961200,9732.37,9732.37
1788961500,9732.37,9732.37
1788961800,9732.37,9732.37
1788962100,9732.37,9732.37
1788962400,9732.37,9732.37
1788962700,9732.37,9732.37
1788963000,9732.37,9732.37
1788963300,9732.37,9732.37
1788963600,9732.37,9732.37
1788963900,9732.37,9732.37
1788964200,9732.37,9732.37
1788964500,9732.37,9732.37
1788964800,9732.37,9732.37
1788965100,9732.37,9732.37
1788965400,9732.37,9732.37
1788965700,9732.37,9732.37
1788966000,9732.37,9732.37
1788966300,9732.37,9732.37
1788966600,9732.37,9732.37
1788966900,9732.37,9732.37
1788967200,9732.37,9732.37
1788967500,9732.37,9732.37
1788967800,9732.37,9732.37
1788968100,9732.37,9732.37
1788968400,9732.37,9732.37
1788968700,9732.37,9732.37
1788969000,9732.37,9732.37
1788969300,9732.37,9732.37
1788969600,9732.37,9732.37
1788969900,9732.37,9732.37
1788970200,9732.37,9732.37
1788970500,9732.37,9732.37
1788970800,9732.37,9732.37
1788971100,9732.37,9732.37
1788971400,9732.37,9732.37
1788971700,9732.37,9732.37
1788972000,9732.37,9732.37
1788972300,9732.37,9732.37
1788972600,9732.37,9732.37
1788972900,9732.37,9732.37
1788973200,9732.37,9732.37
1788973500,9732.37,9732.37
1788973800,9732.37,9732.37
1788974101,9732.37,9732.37
1788974400,9732.37,9732.37
1788974700,9732.37,9732.37
1788975000,9732.37,9732.37
1788975300,9732.37,9732.37
1788975600,9732.37,9732.37
1788975900,9732.37,9732.37
1788976200,9732.37,9732.37
1788976501,9732.37,9732.37
1788976800,9732.37,9732.37
1788977100,9732.37,9732.37
1788977400,9732.37,9732.37
1788977700,9732.37,9732.37
1788978000,9732.37,9732.37
1788978300,9732.37,9732.37
1788978600,9732.37,9732.37
1788978900,9732.37,9732.37
1788979200,9732.37,9732.37
1788979500,9732.37,9732.37
1788979800,9732.37,9732.37
1788980100,9732.37,9732.37
1788980400,9732.37,9732.37
1788980700,9732.37,9732.37
1788981000,9732.37,9732.37
1788981300,9732.37,9732.37
1788981600,9732.37,9732.37
1788981900,9732.37,9732.37
1788982200,9732.37,9732.37
1788982500,9732.37,9732.37
1788982800,9732.37,9732.37
1788983100,9732.37,9732.37
1788983400,9732.37,9732.37
1788983700,9732.37,9732.37
1788984000,9732.37,9732.37
1788984300,9732.37,9732.37
1788984600,9732.37,9732.37
1788984900,9732.37,9732.37
1788985200,9732.37,9732.37
1788985500,9732.37,9732.37
1788985800,9732.37,9732.37
1788986100,9732.37,9732.37
1788986400,9732.37,9732.37
1788986701,9732.37,9732.37
1788987000,9732.37,9732.37
1788987300,9732.37,9732.37
1788991231,9732.37,9732.37
1788991500,9732.37,9732.37
1788991800,9732.37,9732.37
1788992100,9732.37,9732.37
1788992400,9732.37,9732.37
1788992700,9732.37,9732.37
1788993000,9732.37,9732.37
1788993301,9732.37,9732.37
1788993600,9732.37,9732.37
1788993900,9732.37,9732.37
1788994200,9732.37,9732.37
1788994502,9732.37,9732.37
1788994800,9732.37,9732.37
1788995100,9732.37,9732.37
1788995400,9732.37,9732.37
1788995700,9732.37,9732.37
1788996000,9732.37,9732.37
1788996300,9732.37,9732.37
1788996600,9732.37,9732.37
1788996900,9732.37,9732.37
1788997200,9732.37,9732.37
1788997500,9732.37,9732.37
1788997800,9732.37,9732.37
1788998100,9732.37,9732.37
1788998400,9732.37,9732.37
1788998700,9732.37,9732.37
1788999000,9732.37,9732.37
1788999300,9732.37,9732.37
1788999600,9732.37,9732.37
1788999900,9732.37,9732.37
1789000201,9732.37,9732.37
1789000500,9732.37,9732.37
1789000800,9732.37,9732.37
1789001100,9732.37,9732.37
1789001400,9732.37,9732.37
1789001700,9732.37,9732.37
1789002000,9732.37,9732.37
1789002300,9732.37,9732.37
1789002600,9732.37,9732.37
1789002900,9732.37,9732.37
1789003200,9732.37,9732.37
1789003500,9732.37,9732.37
1789003800,9732.37,9732.37
1789004100,9732.37,9732.37
1789004400,9732.37,9732.37
1789004700,9732.37,9732.37
1789005000,9732.37,9732.37
1789005300,9732.37,9732.37
1789005600,9732.37,9732.37
1789005900,9732.37,9732.37
1789006200,9732.37,9732.37
1789006501,9732.37,9732.37
1789006800,9732.37,9732.37
1789007100,9732.37,9732.37
1789007400,9732.37,9732.37
1789007700,9732.37,9732.37
1789008000,9732.37,9732.37
1789008300,9732.37,9732.37
1789008600,9732.37,9732.37
1789008900,9732.37,9732.37
1789009200,9732.37,9732.37
1789009500,9732.37,9732.37
1789009800,9732.37,9732.37
1789010100,9732.37,9732.37
1789010400,9732.37,9732.37
1789010700,9732.37,9732.37
1789011000,9732.37,9732.37
1789011300,9732.37,9732.37
1789011600,9732.37,9732.37
1789011900,9732.37,9732.37
1789012200,9732.37,9732.37
1789012500,9732.37,9732.37
1789012800,9732.37,9732.37
1789013100,9732.37,9732.37
1789013400,9732.37,9732.37
1789013700,9732.37,9732.37
1789014000,9732.37,9732.37
1789014300,9732.37,9732.37
1789014600,9732.37,9732.37
1789014900,9732.37,9732.37
1789015200,9732.37,9732.37
1789015500,9732.37,9732.37
1789015800,9732.37,9732.37
1789016100,9732.37,9732.37
1789016400,9732.37,9732.37
1789016700,9732.37,9732.37
1789017000,9732.37,9732.37
1789017300,9732.37,9732.37
1789017600,9732.37,9732.37
1789017900,9732.37,9732.37
1789018200,9732.37,9732.37
1789018500,9732.37,9732.37
1789018800,9732.37,9732.37
1789019100,9732.37,9732.37
1789019400,9732.37,9732.37
1789019700,9732.37,9732.37
1789020000,9732.37,9732.37
1789020300,9732.37,9732.37
1789020600,9732.37,9732.37
1789020900,9732.37,9732.37
1789021200,9732.37,9732.37
1789021500,9732.37,9732.37
1789021800,9732.37,9732.37
1789022100,9732.37,9732.37
1789022400,9732.37,9732.37
1789022700,9732.37,9732.37
1789023001,9732.37,9732.37
1789023300,9732.37,9732.37
1789023600,9732.37,9732.37
1789023900,9732.37,9732.37
1789024200,9732.37,9732.37
1789024500,9732.37,9732.37
1789024800,9732.37,9732.37
1789025100,9732.37,9732.37
1789025400,9732.37,9732.37
1789025700,9732.37,9732.37
1789026000,9732.37,9732.37
1789026300,9732.37,9732.37
1789026600,9732.37,9732.37
1789026900,9732.37,9732.37
1789027200,9732.37,9732.37
1789027500,9732.37,9732.37
1789027800,9732.37,9732.37
1789028100,9732.37,9732.37
1789028400,9732.37,9732.37
1789028700,9732.37,9732.37
1789029000,9732.37,9732.37
1789029300,9732.37,9732.37
1789029600,9732.37,9732.37
1789029900,9732.37,9732.37
1789030200,9732.37,9732.37
1789030500,9732.37,9732.37
1789030800,9732.37,9732.37
1789031100,9732.37,9732.37
1789031400,9732.37,9732.37
1789031700,9732.37,9732.37
1789032000,9732.37,9732.37
1789032300,9732.37,9732.37
1789032600,9732.37,9732.37
1789032900,9732.37,9732.37
1789033200,9732.37,9732.37
1789033500,9732.37,9732.37
1789033800,9732.37,9732.37
1789034100,9732.37,9732.37
1789034400,9732.37,9732.37
1789034700,9732.37,9732.37
1789035000,9732.37,9732.37
1789035300,9732.37,9732.37
1789035600,9732.37,9732.37
1789035900,9732.37,9732.37
1789036200,9732.37,9732.37
1789036500,9732.37,9732.37
1789036800,9732.37,9732.37
1789037100,9732.37,9732.37
1789037400,9732.37,9732.37
1789037700,9732.37,9732.37
1789038000,9732.37,9732.37
1789038300,9732.37,9732.37
1789038600,9732.37,9732.37
1789038900,9732.37,9732.37
1789039200,9732.37,9732.37
1789039500,9732.37,9732.37
1789039800,9732.37,9732.37
1789040100,9732.37,9732.37
1789040400,9732.37,9732.37
1789040700,9732.37,9732.37
1789041000,9732.37,9732.37
1789041300,9732.37,9732.37
1789041600,9732.37,9732.37
1789041900,9732.37,9732.37
1789042200,9732.37,9732.37
1789042500,9732.37,9732.37
1789042800,9732.37,9732.37
1789043100,9732.37,9732.37
1789043400,9732.37,9732.37
1789043700,9732.37,9732.37
1789044000,9732.37,9732.37
1789044300,9732.37,9732.37
1789044600,9732.37,9732.37
1789044900,9732.37,9732.37
1789045200,9732.37,9732.37
1789045500,9732.37,9732.37
1789045800,9732.37,9732.37
1789046100,9732.37,9732.37
1789046400,9732.37,9732.37
1789046700,9732.37,9732.37
1789047000,9732.37,9732.37
1789047300,9732.37,9732.37
1789047600,9732.37,9732.37
1789047900,9732.37,9732.37
1789048200,9732.37,9732.37
1789048500,9732.37,9732.37
1789048800,9732.37,9732.37
1789049100,9732.37,9732.37
1789049400,9732.37,9732.37
1789049700,9732.37,9732.37
1789050000,9732.37,9732.37
1789050300,9732.37,9732.37
1789050600,9732.37,9732.37
1789050900,9732.37,9732.37
1789051200,9732.37,9732.37
1789051500,9732.37,9732.37
1789051800,9732.37,9732.37
1789052100,9732.37,9732.37
1789052400,9732.37,9732.37
1789052700,9732.37,9732.37
1789053000,9732.37,9732.37
1789053300,9732.37,9732.37
1789053600,9732.37,9732.37
1789053900,9732.37,9732.37
1789054200,9732.37,9732.37
1789054500,9732.37,9732.37
1789054800,9732.37,9732.37
1789055100,9732.37,9732.37
1789055400,9732.37,9732.37
1789055700,9732.37,9732.37
1789056000,9732.37,9732.37
1789056300,9732.37,9732.37
1789056600,9732.37,9732.37
1789056900,9732.37,9732.37
1789057200,9732.37,9732.37
1789057500,9732.37,9732.37
1789057800,9732.37,9732.37
1789058100,9732.37,9732.37
1789058400,9732.37,9732.37
1789058700,9732.37,9732.37
1789059000,9732.37,9732.37
1789059300,9732.37,9732.37
1789059600,9732.37,9732.37
1789059900,9732.37,9732.37
1789060200,9732.37,9732.37
1789060500,9732.37,9732.37
1789060800,9732.37,9732.37
1789061100,9732.37,9732.37
1789061400,9732.37,9732.37
1789061700,9732.37,9732.37
1789062000,9732.37,9732.37
1789062300,9732.37,9732.37
1789062600,9732.37,9732.37
1789062900,9732.37,9732.37
1789063200,9732.37,9732.37
1789063500,9732.37,9732.37
1789063800,9732.37,9732.37
1789064100,9732.37,9732.37
1789064400,9732.37,9732.37
1789064700,9732.37,9732.37
1789065000,9732.37,9732.37
1789065300,9732.37,9732.37
1789065600,9732.37,9732.37
1789065900,9732.37,9732.37
1789066200,9732.37,9732.37
1789066500,9732.37,9732.37
1789066800,9732.37,9732.37
1789067100,9732.37,9732.37
1789067400,9732.37,9732.37
1789067700,9732.37,9732.37
1789068000,9732.37,9732.37
1789068300,9732.37,9732.37
1789068600,9732.37,9732.37
1789068900,9732.37,9732.37
1789069200,9732.37,9732.37
1789069500,9732.37,9732.37
1789069800,9732.37,9732.37
1789070100,9732.37,9732.37
1789070400,9732.37,9732.37
1789070700,9732.37,9732.37
1789071000,9732.37,9732.37
1789071300,9732.37,9732.37
1789071600,9732.37,9732.37
1789071900,9732.37,9732.37
1789072200,9732.37,9732.37
1789072500,9732.37,9732.37
1789072800,9732.37,9732.37
1789073100,9732.37,9732.37
1789073400,9732.37,9732.37
1789073700,9732.37,9732.37
1789077630,9732.37,9732.37
1789077900,9732.37,9732.37
1789078200,9732.37,9732.37
1789078500,9732.37,9732.37
1789078800,9732.37,9732.37
1789079100,9732.37,9732.37
1789079400,9732.37,9732.37
1789079700,9732.37,9732.37
1789080000,9732.37,9732.37
1789080300,9732.37,9732.37
1789080600,9732.37,9732.37
1789080900,9732.37,9732.37
1789081200,9732.37,9732.37
1789081500,9732.37,9732.37
1789081800,9732.37,9732.37
1789082100,9732.37,9732.37
1789082400,9732.37,9732.37
1789082701,9732.37,9732.37
1789083000,9732.37,9732.37
1789083300,9732.37,9732.37
1789083600,9732.37,9732.37
1789083900,9732.37,9732.37
1789084200,9732.37,9732.37
1789084500,9732.37,9732.37
1789084800,9732.37,9732.37
1789085100,9732.37,9732.37
1789085400,9732.37,9732.37
1789085700,9732.37,9732.37
1789086000,9732.37,9732.37
1789086300,9732.37,9732.37
1789086600,9732.37,9732.37
1789086900,9732.37,9732.37
1789087200,9732.37,9732.37
1789087500,9732.37,9732.37
1789087800,9732.37,9732.37
1789088100,9732.37,9732.37
1789088400,9732.37,9732.37
1789088700,9732.37,9732.37
1789089000,9732.37,9732.37
1789089300,9732.37,9732.37
1789089600,9732.37,9732.37
1789089900,9732.37,9732.37
1789090200,9732.37,9732.37
1789090500,9732.37,9732.37
1789090800,9732.37,9732.37
1789091100,9732.37,9732.37
1789091400,9732.37,9732.37
1789091700,9732.37,9732.37
1789092000,9732.37,9732.37
1789092300,9732.37,9732.37
1789092600,9732.37,9732.37
1789092900,9732.37,9732.37
1789093200,9732.37,9732.37
1789093500,9732.37,9732.37
1789093800,9732.37,9732.37
1789094100,9732.37,9732.37
1789094400,9732.37,9732.37
1789094700,9732.37,9732.37
1789095000,9732.37,9732.37
1789095300,9732.37,9732.37
1789095600,9732.37,9732.37
1789095900,9732.37,9732.37
1789096200,9732.37,9732.37
1789096501,9732.37,9732.37
1789096801,9732.37,9732.37
1789097100,9732.37,9732.37
1789097400,9732.37,9732.37
1789097700,9732.37,9732.37
1789098000,9732.37,9732.37
1789098300,9732.37,9732.37
1789098600,9732.37,9732.37
1789098900,9732.37,9732.37
1789099200,9732.37,9732.37
1789099500,9732.37,9732.37
1789099800,9732.37,9732.37
1789100100,9732.37,9732.37
1789100400,9732.37,9732.37
1789100700,9732.37,9732.37
1789101000,9732.37,9732.37
1789101300,9732.37,9732.37
1789101600,9732.37,9732.37
1789101900,9732.37,9732.37
1789102200,9732.37,9732.37
1789102500,9732.37,9732.37
1789102800,9732.37,9732.37
1789103100,9732.37,9732.37
1789103400,9732.37,9732.37
1789103700,9732.37,9732.37
1789104000,9732.37,9732.37
1789104300,9732.37,9732.37
1789104600,9732.37,9732.37
1789104900,9732.37,9732.37
1789105200,9732.37,9732.37
1789105500,9732.37,9732.37
1789105800,9732.37,9732.37
1789106100,9732.37,9732.37
1789106400,9732.37,9732.37
1789106700,9732.37,9732.37
1789107000,9732.37,9732.37
1789107300,9732.37,9732.37
1789107600,9732.37,9732.37
1789107900,9732.37,9732.37
1789108200,9732.37,9732.37
1789108500,9732.37,9732.37
1789108800,9732.37,9732.37
1789109100,9732.37,9732.37
1789109400,9732.37,9732.37
1789109700,9732.37,9732.37
1789110000,9732.37,9732.37
1789110300,9732.37,9732.37
1789110600,9732.37,9732.37
1789110900,9732.37,9732.37
1789111200,9732.37,9732.37
1789111500,9732.37,9732.37
1789111800,9732.37,9732.37
1789112100,9732.37,9732.37
1789112400,9732.37,9732.37
1789112700,9732.37,9732.37
1789113000,9732.37,9732.37
1789113300,9732.37,9732.37
1789113600,9732.37,9732.37
1789113900,9732.37,9732.37
1789114200,9732.37,9732.37
1789114500,9732.37,9732.37
1789114800,9732.37,9732.37
1789115100,9732.37,9732.37
1789115400,9732.37,9732.37
1789115700,9732.37,9732.37
1789116000,9732.37,9732.37
1789116300,9732.37,9732.37
1789116600,9732.37,9732.37
1789116900,9732.37,9732.37
1789117200,9732.37,9732.37
1789117501,9732.37,9732.37
1789117800,9732.37,9732.37
1789118100,9732.37,9732.37
1789118400,9732.37,9732.37
1789118700,9732.37,9732.37
1789119000,9732.37,9732.37
1789119300,9732.37,9732.37
1789119600,9732.37,9732.37
1789119900,9732.37,9732.37
1789120200,9732.37,9732.37
1789120501,9732.37,9732.37
1789120800,9732.37,9732.37
1789121100,9732.37,9732.37
1789121400,9732.37,9732.37
1789121700,9732.37,9732.37
1789122000,9732.37,9732.37
1789122300,9732.37,9732.37
1789122600,9732.37,9732.37
1789122900,9732.37,9732.37
1789123200,9732.37,9732.37
1789123500,9732.37,9732.37
1789123800,9732.37,9732.37
1789124100,9732.37,9732.37
1789124400,9732.37,9732.37
1789124700,9732.37,9732.37
1789125000,9732.37,9732.37
1789125300,9732.37,9732.37
1789125600,9732.37,9732.37
1789125901,9732.37,9732.37
1789126200,9732.37,9732.37
1789126500,9732.37,9732.37
1789126800,9732.37,9732.37
1789127100,9732.37,9732.37
1789127400,9732.37,9732.37
1789127700,9732.37,9732.37
1789128000,9732.37,9732.37
1789128300,9732.37,9732.37
1789128600,9732.37,9732.37
1789128900,9732.37,9732.37
1789129200,9732.37,9732.37
1789129500,9732.37,9732.37
1789129800,9732.37,9732.37
1789130100,9732.37,9732.37
1789130400,9732.37,9732.37
1789130700,9732.37,9732.37
1789131000,9732.37,9732.37
1789131300,9732.37,9732.37
1789131600,9732.37,9732.37
1789131900,9732.15,9740.92
1789132200,9732.15,9711.56
1789132500,9732.15,9737.68
1789132800,9732.15,9726.68
1789133100,9732.15,9713.32
1789133400,9732.15,9741.33
1789133700,9732.15,9763.05
1789134000,9732.15,9742.14
1789134300,9732.15,9760.01
1789134600,9732.15,9752.97
1789134900,9732.15,9739.0
1789135200,9732.15,9786.59
1789135500,9732.15,9741.4
1789135800,9732.15,9730.3
1789136100,9732.15,9713.05
1789136400,9732.15,9709.88
1789136700,9732.15,9698.02
1789137000,9732.15,9681.62
1789137300,9732.15,9667.84
1789137600,9646.62,9646.62
1789137900,9646.62,9646.62
1789138200,9646.62,9646.62
1789138500,9646.62,9646.62
1789138800,9646.62,9646.62
1789139100,9646.62,9646.62
1789139400,9646.62,9646.62
1789139700,9646.62,9646.62
1789140000,9646.62,9646.62
1789140300,9646.62,9646.62
1789140600,9646.62,9646.62
1789140900,9646.62,9646.62
1789141200,9646.62,9646.62
1789141500,9646.62,9646.62
1789141800,9646.62,9646.62
1789142100,9646.62,9646.62
1789142400,9646.62,9646.62
1789142700,9646.62,9646.62
1789143000,9646.62,9646.62
1789143300,9646.62,9646.62
1789143600,9646.62,9646.62
1789143900,9646.62,9646.62
1789144200,9646.62,9646.62
1789144500,9646.62,9646.62
1789144800,9646.62,9646.62
1789145100,9646.62,9646.62
1789145400,9646.62,9646.62
1789145700,9646.62,9646.62
1789146000,9646.62,9646.62
1789146300,9646.62,9646.62
1789146600,9646.62,9646.62
1789146900,9646.62,9646.62
1789147200,9646.62,9646.62
1789147500,9646.62,9646.62
1789147800,9646.62,9646.62
1789148100,9646.62,9646.62
1789148400,9646.62,9646.62
1789148700,9646.62,9646.62
1789149000,9646.62,9646.62
1789149300,9646.62,9646.62
1789149600,9646.62,9646.62
1789149900,9646.62,9646.62
1789150200,9646.62,9646.62
1789150500,9646.62,9646.62
1789150800,9646.62,9646.62
1789151100,9646.62,9646.62
1789151400,9646.62,9646.62
1789151700,9646.62,9646.62
1789152000,9646.62,9646.62
1789152300,9646.62,9646.62
1789152600,9646.62,9646.62
1789152900,9646.62,9646.62
1789153200,9646.62,9646.62
1789153500,9646.62,9646.62
1789153800,9646.62,9646.62
1789154100,9646.62,9646.62
1789154400,9646.62,9646.62
1789154700,9646.62,9646.62
1789155000,9646.62,9646.62
1789155300,9646.62,9646.62
1789155600,9646.62,9646.62
1789155900,9646.62,9646.62
1789156200,9646.62,9646.62
1789156500,9646.62,9646.62
1789156800,9646.62,9646.62
1789157100,9646.62,9646.62
1789157400,9646.62,9646.62
1789157700,9646.62,9646.62
1789158000,9646.62,9646.62
1789158300,9646.62,9646.62
1789158600,9646.62,9646.62
1789158900,9646.62,9646.62
1789159200,9646.62,9646.62
1789159500,9646.62,9646.62
1789159800,9646.62,9646.62
1789160100,9646.62,9646.62
1789337131,9646.62,9646.62
1789337400,9646.62,9646.62
1789337700,9646.62,9646.62
1789338000,9646.62,9646.62
1789338300,9646.62,9646.62
1789338600,9646.62,9646.62
1789338900,9646.62,9646.62
1789339200,9646.62,9646.62
1789339500,9646.62,9646.62
1789339800,9646.62,9646.62
1789340100,9646.62,9646.62
1789340400,9646.62,9646.62
1789340700,9646.62,9646.62
1789341000,9646.62,9646.62
1789341300,9646.62,9646.62
1789341600,9646.62,9646.62
1789341900,9646.62,9646.62
1789342200,9646.62,9646.62
1789342500,9646.62,9646.62
1789342800,9646.62,9646.62
1789343100,9646.62,9646.62
1789343400,9646.62,9646.62
1789343700,9646.62,9646.62
1789344000,9646.62,9646.62
1789344300,9646.62,9646.62
1789344600,9646.62,9646.62
1789344900,9646.62,9646.62
1789345200,9646.62,9646.62
1789345500,9646.62,9646.62
1789345800,9646.62,9646.62
1789346100,9646.62,9646.62
1789346400,9646.62,9646.62
1789346700,9646.62,9646.62
1789347000,9646.62,9646.62
1789347300,9646.62,9646.62
1789347600,9646.62,9646.62
1789347900,9646.62,9646.62
1789348200,9646.62,9646.62
1789348500,9646.62,9646.62
1789348800,9646.62,9646.62
1789349100,9646.62,9646.62
1789349400,9646.62,9646.62
1789349700,9646.62,9646.62
1789350000,9646.62,9646.62
1789350300,9646.62,9646.62
1789350600,9646.62,9646.62
1789350900,9646.62,9646.62
1789351200,9646.62,9646.62
1789351500,9646.62,9646.62
1789351800,9646.62,9646.62
1789352100,9646.62,9646.62
1789352400,9646.62,9646.62
1789352700,9646.62,9646.62
1789353000,9646.62,9646.62
1789353300,9646.62,9646.62
1789353600,9646.62,9646.62
1789353900,9646.62,9646.62
1789354200,9646.62,9646.62
1789354500,9646.62,9646.62
1789354800,9646.62,9646.62
1789355100,9646.62,9646.62
1789355400,9646.62,9646.62
1789355700,9646.62,9646.62
1789356000,9646.62,9646.62
1789356300,9646.62,9646.62
1789356600,9646.62,9646.62
1789356900,9646.62,9646.62
1789357200,9646.62,9646.62
1789357500,9646.62,9646.62
1789357800,9646.62,9646.62
1789358100,9646.62,9646.62
1789358400,9646.62,9646.62
1789358700,9646.62,9646.62
1789359000,9646.62,9646.62
1789359300,9646.62,9646.62
1789359600,9646.62,9646.62
1789359900,9646.62,9646.62
1789360200,9646.62,9646.62
1789360501,9646.62,9646.62
1789360800,9646.62,9646.62
1789361100,9646.62,9646.62
1789361400,9646.62,9646.62
1789361700,9646.62,9646.62
1789362000,9646.62,9646.62
1789362300,9646.62,9646.62
1789362600,9646.62,9646.62
1789362900,9646.62,9646.62
1789363200,9646.62,9646.62
1789363500,9646.62,9646.62
1789363800,9646.62,9646.62
1789364100,9646.62,9646.62
1789364400,9646.62,9646.62
1789364700,9646.62,9646.62
1789365000,9646.62,9646.62
1789365300,9646.62,9646.62
1789365600,9646.62,9646.62
1789365900,9646.62,9646.62
1789366200,9646.62,9646.62
1789366500,9646.62,9646.62
1789366800,9646.62,9646.62
1789367100,9646.62,9646.62
1789367400,9646.62,9646.62
1789367700,9646.62,9646.62
1789368000,9646.62,9646.62
1789368300,9646.62,9646.62
1789368600,9646.62,9646.62
1789368900,9646.62,9646.62
1789369200,9646.62,9646.62
1789369500,9646.62,9646.62
1789369800,9646.62,9646.62
1789370100,9646.62,9646.62
1789370400,9646.62,9646.62
1789370700,9646.62,9646.62
1789371000,9646.62,9646.62
1789371300,9646.62,9646.62
1789371600,9646.62,9646.62
1789371900,9646.62,9646.62
1789372200,9646.62,9646.62
1789372500,9646.62,9646.62
1789372800,9646.62,9646.62
1789373100,9646.62,9646.62
1789373400,9646.62,9646.62
1789373700,9646.62,9646.62
1789374000,9646.62,9646.62
1789374300,9646.62,9646.62
1789374600,9646.62,9646.62
1789374900,9646.62,9646.62
1789375200,9646.62,9646.62
1789375500,9646.62,9646.62
1789375800,9646.62,9646.62
1789376100,9646.62,9646.62
1789376400,9646.62,9646.62
1789376700,9646.62,9646.62
1789377000,9646.62,9646.62
1789377300,9646.62,9646.62
1789377600,9646.62,9646.62
1789377900,9646.62,9646.62
1789378200,9646.62,9646.62
1789378500,9646.62,9646.62
1789378800,9646.62,9646.62
1789379100,9646.62,9646.62
1789379400,9646.62,9646.62
1789379700,9646.62,9646.62
1789380000,9646.62,9646.62
1789380300,9646.62,9646.62
1789380600,9646.62,9646.62
1789380900,9646.62,9646.62
1789381200,9646.62,9646.62
1789381500,9646.62,9646.62
1789381800,9646.62,9646.62
1789382100,9646.62,9646.62
1789382400,9646.62,9646.62
1789382700,9646.62,9646.62
1789383000,9646.62,9646.62
1789383300,9646.62,9646.62
1789383600,9646.62,9646.62
1789383900,9646.62,9646.62
1789384200,9646.62,9646.62
1789384500,9646.62,9646.62
1789384800,9646.62,9646.62
1789385100,9646.62,9646.62
1789385400,9646.62,9646.62
1789385700,9646.62,9646.62
1789386000,9646.62,9646.62
1789386300,9646.62,9646.62
1789386600,9646.62,9646.62
1789386900,9646.62,9646.62
1789387200,9646.62,9646.62
1789387500,9646.62,9646.62
1789387800,9646.62,9646.62
1789388100,9646.62,9646.62
1789388400,9646.62,9646.62
1789388700,9646.62,9646.62
1789389000,9646.62,9646.62
1789389300,9646.62,9646.62
1789389600,9646.62,9646.62
1789389900,9646.62,9646.62
1789390200,9646.62,9646.62
1789390500,9646.62,9646.62
1789390800,9646.62,9646.62
1789391100,9646.62,9646.62
1789391400,9646.62,9646.62
1789391700,9646.62,9646.62
1789392000,9646.62,9646.62
1789392300,9646.62,9646.62
1789392600,9646.62,9646.62
1789392900,9646.62,9646.62
1789393200,9646.62,9646.62
1789393500,9646.62,9646.62
1789393800,9646.62,9646.62
1789394100,9646.62,9646.62
1789394400,9646.62,9646.62
1789394700,9646.62,9646.62
1789395000,9646.62,9646.62
1789395300,9646.62,9646.62
1789395600,9646.62,9646.62
1789395900,9646.62,9646.62
1789396200,9646.62,9646.62
1789396500,9646.62,9646.62
1789396800,9646.62,9646.62
1789397100,9646.62,9646.62
1789397400,9646.62,9646.62
1789397700,9646.62,9646.62
1789398000,9646.62,9646.62
1789398300,9646.62,9646.62
1789398600,9646.62,9646.62
1789398900,9646.62,9646.62
1789399200,9646.62,9646.62
1789399500,9646.62,9646.62
1789399800,9646.62,9646.62
1789400100,9646.62,9646.62
1789400400,9646.62,9646.62
1789400700,9646.62,9646.62
1789401000,9646.62,9646.62
1789401300,9646.62,9646.62
1789401600,9646.62,9646.62
1789401900,9646.62,9646.62
1789402200,9646.62,9646.62
1789402500,9646.62,9646.62
1789402800,9646.62,9646.62
1789403100,9646.62,9646.62
1789403400,9646.62,9646.62
1789403700,9646.62,9646.62
1789404000,9646.62,9646.62
1789404300,9646.62,9646.62
1789404600,9646.62,9646.62
1789404900,9646.62,9646.62
1789405200,9646.62,9646.62
1789405501,9646.62,9646.62
1789405800,9646.62,9646.62
1789406100,9646.62,9646.62
1789406400,9646.62,9646.62
1789406700,9646.62,9646.62
1789407000,9646.62,9646.62
1789407300,9646.62,9646.62
1789407600,9646.62,9646.62
1789407900,9646.62,9646.62
1789408200,9646.62,9646.62
1789408500,9646.62,9646.62
1789408800,9646.62,9646.62
1789409100,9646.62,9646.62
1789409400,9646.62,9646.62
1789409700,9646.62,9646.62
1789410000,9646.62,9646.62
1789410300,9646.62,9646.62
1789410600,9646.62,9646.62
1789410900,9646.62,9646.62
1789411200,9646.62,9646.62
1789411500,9646.62,9646.62
1789411800,9646.62,9646.62
1789412100,9646.62,9646.62
1789412400,9646.62,9646.62
1789412700,9646.62,9646.62
1789413000,9646.62,9646.62
1789413300,9646.62,9646.62
1789413600,9646.62,9646.62
1789413900,9646.62,9646.62
1789414200,9646.62,9646.62
1789414500,9646.62,9646.62
1789414800,9646.62,9646.62
1789415100,9646.62,9646.62
1789415400,9646.62,9646.62
1789415700,9646.62,9646.62
1789416000,9646.62,9646.62
1789416300,9646.62,9646.62
1789416600,9646.62,9646.62
1789416900,9646.62,9646.62
1789417200,9646.62,9646.62
1789417501,9646.62,9646.62
1789417800,9646.62,9646.62
1789418100,9646.62,9646.62
1789418400,9646.62,9646.62
1789418700,9646.62,9646.62
1789419000,9646.62,9646.62
1789419300,9646.62,9646.62
1789423232,9646.62,9646.62
1789423500,9646.62,9646.62
1789423800,9646.62,9646.62
1789424100,9646.62,9646.62
1789424400,9646.62,9646.62
1789424700,9646.62,9646.62
1789425000,9646.62,9646.62
1789425300,9646.62,9646.62
1789425600,9646.62,9646.62
1789425900,9646.62,9646.62
1789426200,9646.62,9646.62
1789426500,9646.62,9646.62
1789426800,9646.62,9646.62
1789427100,9646.62,9646.62
1789427400,9646.62,9646.62
1789427701,9646.62,9646.62
1789428000,9646.62,9646.62
1789428300,9646.62,9646.62
1789428600,9646.62,9646.62
1789428900,9646.62,9646.62
1789429200,9646.62,9646.62
1789429501,9646.62,9646.62
1789429800,9646.62,9646.62
1789430100,9646.62,9646.62
